time (s)	magX	magY	magZ
7319.777696	-54.188194	333.510834	-245.101120
7319.781016	-52.084160	333.101685	-243.113968
7319.784365	-51.382812	332.692596	-241.828171
7319.787757	-49.571014	332.341888	-239.607254
7319.791081	-48.343658	331.523682	-236.509659
7319.794362	-46.765640	330.997681	-235.399170
7319.797683	-45.888954	329.478088	-233.061356
7319.801046	-44.486267	329.887207	-231.307999
7319.804419	-43.784920	328.367645	-229.262421
7319.807754	-41.973114	327.607849	-226.632370
7319.811015	-40.395096	326.964935	-225.112793
7319.814785	-39.050850	326.672699	-221.898315
7319.817743	-37.881943	325.620697	-221.021622
7319.821103	-37.005264	325.503784	-219.092941
7319.824832	-35.602577	324.218018	-217.105789
7319.828099	-34.141438	323.867340	-215.527771
7319.831450	-32.972530	322.639984	-212.780838
7319.834858	-32.154297	322.873779	-212.605499
7319.838161	-30.926941	322.113983	-211.027481
7319.841503	-29.173584	321.178864	-209.507889
7319.844761	-28.647575	321.178864	-207.871414
7319.848126	-27.303329	320.769745	-207.403854
7319.851524	-26.251316	320.360596	-206.468719
7319.854837	-25.082409	319.717712	-204.540039
7319.858160	-23.445938	319.016388	-203.780243
7319.861430	-22.803040	319.483948	-203.254242
7319.864778	-21.634132	318.315033	-203.020447
7319.868173	-20.757450	319.133270	-201.851547
7319.871519	-19.237873	318.724152	-201.383987
7319.874843	-18.302746	318.431915	-201.208649
7319.878537	-17.718292	317.847473	-200.507309
7319.881789	-16.900059	318.490356	-200.331970
7319.884993	-15.848042	318.022797	-199.455292
7319.888217	-14.620689	318.315033	-199.747513
7319.891933	-12.984222	317.847473	-200.273529
7319.895191	-12.516659	317.847473	-199.046173
7319.898451	-11.230858	318.022797	-199.455292
7319.901708	-9.945061	317.789032	-199.279953
7319.905338	-9.068382	317.847473	-199.455292
7319.908557	-8.659264	317.964355	-199.163071
7319.911862	-7.139687	319.133270	-199.805954
7319.915073	-6.379894	318.081238	-199.338394
7319.918379	-5.444771	318.607239	-198.929276
7319.922044	-4.451199	318.782593	-198.578598
7319.925258	-3.399185	318.198151	-199.046173
7319.928506	-2.639391	318.373474	-199.221512
7319.932229	-1.412039	318.548828	-199.104614
7319.935460	-0.476913	319.308594	-199.104614
7319.938688	0.750439	319.483948	-199.338394
7319.941937	2.094681	318.431915	-199.104614
7319.945649	3.029806	318.782593	-199.338394
7319.948872	4.490940	318.899475	-198.987732
7319.952106	5.426065	319.133270	-198.695496
7319.955333	6.068966	319.308594	-198.111038
7319.959044	7.530098	318.490356	-198.870834
7319.962300	8.991234	319.016388	-198.286392
7319.965538	9.634132	319.776184	-198.753952
7319.968787	10.744593	320.243744	-198.812393
7319.972463	11.796610	320.535950	-198.987732
7319.975705	13.199299	319.717712	-199.689072
7319.978909	14.192869	320.886627	-199.981293
7319.982162	15.303330	320.945068	-199.630630
7319.985811	16.180012	321.295715	-201.559326
7319.989033	17.816481	321.938660	-201.559326
7319.992291	19.102280	322.055511	-203.429581
7319.995969	20.446522	322.639984	-203.020447
7319.999195	21.264757	323.692017	-204.423141
7320.002425	22.725891	323.575104	-205.650497
7320.005652	23.777908	324.627136	-206.994751
7320.009393	25.297485	325.094696	-208.163635
7320.012596	26.291058	325.445374	-209.800125
7320.015800	28.219753	326.146729	-211.202805
7320.019431	29.505552	327.783173	-212.371704
7320.022664	30.557568	327.724731	-214.534180
7320.025869	32.427818	328.192291	-216.170670
7320.029167	33.596725	328.776764	-217.982452
7320.032822	34.824078	330.062561	-220.203400
7320.036082	36.811222	330.647003	-221.255417
7320.039339	37.746346	331.289917	-223.125671
7320.042583	39.090591	331.348328	-224.820557
7320.046271	40.551723	332.984833	-226.515488
7320.049498	41.720631	334.153717	-228.561066
7320.052729	43.240211	334.504395	-230.548218
7320.055951	45.227352	335.497955	-231.950897
7320.059694	46.746933	335.556396	-234.288712
7320.062897	47.798946	337.485107	-236.158966
7320.066133	49.143192	336.842194	-237.561646
7320.069777	50.545879	338.303345	-239.081238
7320.073477	52.649910	338.946228	-241.594376
7320.076808	53.994156	339.238464	-243.406204
7320.080147	55.513733	340.232025	-244.341324
7320.083488	57.091759	340.933380	-245.627121
7320.086808	58.845116	341.693176	-248.666290
7320.090143	60.540035	342.628296	-250.945633
7320.093474	62.001171	342.862061	-252.991241
7320.096807	63.403858	343.680298	-254.569260
7320.100143	65.390999	344.732330	-256.322601
7320.103471	66.969025	344.615417	-258.075958
7320.106806	68.897720	345.667450	-260.589111
7320.110139	70.651077	346.368805	-262.576263
7320.113477	72.404442	346.661041	-265.323181
7320.116809	74.450027	347.654602	-268.420807
7320.120141	75.794266	347.946838	-270.758606
7320.123470	78.424316	348.765045	-273.271759
7320.126809	80.469902	349.466400	-276.603119
7320.130139	82.047920	349.992401	-278.590271
7320.133472	83.918182	350.985962	-282.856812
7320.136824	86.197540	351.453522	-285.136169
7320.140137	88.593811	352.154877	-288.350647
7320.143470	91.106949	352.388672	-291.915833
7320.146804	92.977211	353.148437	-295.364105
7320.150135	95.548805	354.492706	-298.520142
7320.153467	97.711281	354.434265	-302.552887
7320.156804	100.341324	355.135590	-306.702515
7320.160136	102.562241	355.778503	-310.501434
7320.163468	104.958504	355.661591	-314.300385
7320.166801	107.413208	356.070740	-318.859131
7320.170133	109.751022	356.246063	-322.482727
7320.173467	112.673286	356.830505	-327.158356
7320.176800	114.601990	356.772095	-331.015747
7320.180133	117.290474	357.064301	-335.223816
7320.183463	120.329628	357.122742	-338.613647
7320.186802	122.667442	356.772095	-342.997070
7320.190146	125.823494	356.947418	-347.555817
7320.193887	128.219757	356.421387	-351.939209
7320.197218	130.908249	356.538300	-356.381042
7320.200579	133.070709	356.596710	-360.589111
7320.203937	136.285217	355.544739	-366.024536
7320.207237	139.090591	356.012299	-369.881927
7320.210548	141.837524	354.901825	-374.674438
7320.213884	144.409119	354.609589	-379.350067
7320.217236	147.448273	353.557587	-382.739899
7320.220572	150.487427	353.616028	-388.058441
7320.223886	153.059021	351.979553	-391.156036
7320.227218	155.981293	351.745758	-396.065460
7320.230551	158.669785	350.576874	-399.981293
7320.233884	161.299820	350.459961	-405.066010
7320.237245	164.397430	349.291046	-408.455841
7320.240558	167.611923	347.654602	-413.073029
7320.243901	170.534195	346.894806	-417.514893
7320.247217	173.222687	345.609009	-422.190521
7320.250546	176.495621	344.031006	-427.275269
7320.253910	179.593231	341.868500	-430.957336
7320.257248	182.983047	340.290497	-436.042084
7320.260982	186.197556	338.654022	-441.185242
7320.264306	189.236710	336.433105	-445.802460
7320.267665	192.158966	335.497955	-451.471619
7320.271065	195.607254	332.867920	-456.556366
7320.274395	199.932205	330.354767	-461.991791
7320.277639	202.737579	328.075409	-467.018097
7320.280972	205.718292	325.153137	-472.862640
7320.284322	209.517242	322.932220	-479.408508
7320.287706	213.023972	320.302155	-483.908813
7320.291042	216.063126	316.152527	-489.811798
7320.294300	219.978958	313.814728	-494.779633
7320.297662	223.427231	309.781982	-500.215057
7320.300994	226.992401	307.093506	-506.468719
7320.304335	230.615997	302.827026	-511.845703
7320.307715	233.888947	298.443604	-517.514954
7320.310964	237.161880	294.177094	-523.008789
7320.314320	240.727051	290.144379	-528.561096
7320.317655	244.058441	286.111633	-534.230286
7320.320993	247.389832	281.319122	-539.548828
7320.324397	250.370529	276.409729	-545.159546
7320.328055	254.227936	272.084747	-550.068970
7320.331428	257.617767	267.116882	-555.913513
7320.334806	260.540039	261.915253	-560.589172
7320.338120	263.462311	257.940979	-565.381653
7320.341458	266.969025	252.739349	-569.998840
7320.344759	269.482178	247.888367	-575.434265
7320.348075	272.170654	242.219177	-579.642334
7320.351456	275.209808	237.485107	-583.733521
7320.354790	278.482758	231.582123	-588.292236
7320.358121	281.112793	225.562256	-592.149658
7320.361453	284.151978	219.951508	-596.708374
7320.364718	286.548218	214.399170	-600.331970
7320.368068	289.061371	209.139099	-604.189392
7320.371477	291.983643	203.294556	-607.812988
7320.374804	294.321442	196.631805	-612.254822
7320.378116	296.600830	190.670380	-615.878418
7320.381389	299.581543	184.475159	-618.450073
7320.384761	301.919342	178.455292	-622.073608
7320.388166	303.672699	172.727631	-624.060791
7320.391449	306.361176	165.363525	-627.158386
7320.394788	308.348328	158.759216	-630.548218
7320.398536	310.101685	151.628876	-633.236755
7320.401896	312.030396	144.732315	-636.158997
7320.405130	314.660431	137.543549	-639.256592
7320.408413	315.712463	129.653412	-640.893066
7320.411642	317.874908	122.289307	-643.289307
7320.414915	319.745178	114.808296	-645.860901
7320.418642	321.323212	107.502632	-648.666260
7320.421933	323.368805	100.196960	-649.952087
7320.425179	324.888367	91.839272	-652.289917
7320.428494	326.174164	84.124489	-654.393921
7320.431720	327.693756	75.649918	-655.095276
7320.435475	328.687317	67.642899	-656.322632
7320.438729	329.739349	59.869667	-657.783813
7320.441990	330.732910	51.161308	-658.601990
7320.445233	331.317352	43.271187	-660.121582
7320.448490	332.135590	35.147282	-661.232056
7320.452174	332.895386	27.490940	-661.524292
7320.455503	332.895386	19.250145	-662.284058
7320.458770	332.603149	10.424898	-661.290466
7320.462000	333.070709	2.885448	-661.816467
7320.465300	333.012268	-4.478668	-660.296875
7320.468993	332.603149	-12.251900	-660.413818
7320.472090	333.187622	-19.499123	-658.835754
7320.475439	332.486267	-27.330803	-658.543579
7320.478688	332.427826	-34.870251	-656.965515
7320.482322	331.609589	-42.000584	-655.621277
7320.485564	331.317352	-49.130920	-654.160156
7320.488765	330.499146	-56.202812	-653.341919
7320.492446	330.031555	-63.450027	-649.484497
7320.495691	328.862640	-70.054359	-648.081787
7320.498963	328.395081	-76.483345	-645.744019
7320.502179	326.349518	-83.146111	-643.639954
7320.505856	325.472809	-89.165993	-641.769714
7320.509088	323.894806	-96.237877	-638.847473
7320.512306	322.725891	-102.549973	-635.749878
7320.515567	321.615448	-108.219177	-633.412048
7320.519236	319.511383	-114.589714	-629.496216
7320.522501	318.400940	-120.551140	-627.333740
7320.525732	317.173584	-126.395668	-623.184082
7320.529358	315.420227	-132.415558	-620.203369
7320.532586	313.491516	-137.617187	-617.222656
7320.535799	311.855072	-143.461731	-614.008179
7320.539460	309.926361	-149.072479	-609.449463
7320.542715	308.173004	-154.624786	-605.475159
7320.545951	305.718292	-160.177094	-600.331970
7320.549173	304.081818	-165.787842	-597.000610
7320.552901	301.393311	-170.755707	-592.734070
7320.556127	298.997070	-175.840454	-528.619507
7320.559479	279.593201	-169.937469	-574.674438
7320.562789	294.029205	-186.594391	-578.648743
7320.566067	291.983643	-190.977783	-573.330261
7320.569336	289.528931	-196.530090	-568.070190
7320.572606	286.255981	-201.381042	-563.160767
7320.576268	283.450623	-205.764465	-558.368225
7320.579518	281.171234	-210.264771	-552.640564
7320.582788	278.482758	-214.005280	-546.796021
7320.586023	275.618958	-218.447113	-542.354187
7320.589635	273.047333	-222.070709	-536.334290
7320.592832	270.475769	-226.512573	-531.191162
7320.596087	267.670380	-230.486847	-525.346619
7320.599774	264.455872	-234.110474	-520.963196
7320.603424	261.416687	-237.500305	-514.884888
7320.606757	257.793091	-240.539429	-510.092316
7320.610089	255.279953	-244.513733	-505.182953
7320.613421	253.175903	-246.851562	-499.572174
7320.616759	249.610764	-249.890686	-494.604309
7320.620091	246.805359	-252.812958	-489.753357
7320.623420	243.941559	-254.917023	-484.843933
7320.626752	241.662170	-258.131500	-479.057831
7320.630088	238.097031	-260.293976	-474.791351
7320.633423	235.174759	-261.871979	-470.291046
7320.636757	232.603149	-263.976044	-465.089417
7320.640088	230.206909	-266.313843	-460.179993
7320.643438	226.992401	-268.534760	-454.919922
7320.646752	224.537704	-269.995911	-450.887207
7320.650085	222.082993	-270.814148	-446.269989
7320.653423	219.160721	-272.625916	-441.243713
7320.656755	216.530685	-274.788422	-436.860291
7320.660083	214.075974	-276.717133	-432.535370
7320.663417	211.679718	-277.593781	-428.035065
7320.666753	209.458801	-278.704285	-423.885437
7320.670086	206.244293	-279.873169	-418.800690
7320.673432	203.731155	-281.451172	-413.365265
7320.676751	200.867325	-282.620117	-408.981842
7320.680086	198.587967	-283.438324	-404.014008
7320.683415	195.899475	-284.373444	-399.396820
7320.686747	192.977203	-286.009949	-395.305664
7320.690084	189.996490	-286.535950	-390.513153
7320.693419	188.360016	-288.172394	-385.895935
7320.696774	185.262421	-289.165985	-381.161896
7320.700521	183.392181	-288.990662	-376.720032
7320.703859	180.411453	-290.159546	-372.161285
7320.707169	177.781403	-290.685577	-367.894775
7320.710502	174.859146	-291.796021	-363.336029
7320.713834	172.287552	-292.555817	-358.718842
7320.717184	169.540619	-292.322021	-354.744598
7320.720516	167.261246	-293.257141	-349.426056
7320.723835	164.689651	-293.958496	-345.802429
7320.727182	161.884277	-293.900055	-341.360596
7320.730497	159.838699	-294.659851	-337.970764
7320.733848	157.033325	-294.367615	-334.113373
7320.737192	154.812393	-295.127411	-330.197540
7320.740499	152.182343	-295.302734	-326.398590
7320.743827	149.844543	-296.354767	-323.359436
7320.747168	147.623627	-295.711853	-319.443604
7320.750542	145.110458	-296.354767	-316.638214
7320.753895	142.772644	-296.354767	-313.073059
7320.757168	141.019287	-296.997650	-310.501434
7320.760499	138.623032	-296.179413	-306.994720
7320.764267	136.752777	-296.880768	-304.306244
7320.767199	134.999420	-296.705414	-301.500854
7320.770566	133.012268	-296.939209	-299.046173
7320.774251	131.258911	-296.763885	-297.175903
7320.777584	129.563995	-296.822327	-294.195190
7320.780946	127.635300	-296.646973	-291.682037
7320.784347	126.466393	-296.646973	-289.928680
7320.787662	123.836349	-296.705414	-287.707764
7320.790910	122.375221	-296.705414	-285.136169
7320.794250	120.797195	-296.413177	-283.265900
7320.797597	118.751602	-296.296326	-281.512543
7320.801006	117.115135	-296.004089	-279.934540
7320.804355	115.478668	-296.062531	-276.603119
7320.807594	114.368210	-296.179413	-274.732880
7320.810917	112.614845	-296.179413	-272.804199
7320.814265	110.277031	-295.828766	-271.518402
7320.817646	109.166573	-295.361206	-268.420807
7320.821009	107.705429	-295.594971	-267.368774
7320.824246	106.361191	-296.179413	-265.849182
7320.827585	104.900055	-295.828766	-263.277618
7320.831403	102.971367	-295.594971	-261.232025
7320.834330	101.802460	-294.893616	-259.127991
7320.837663	99.990646	-295.010498	-257.140839
7320.841334	98.704849	-295.536530	-256.205719
7320.844693	96.834602	-295.361206	-253.926376
7320.848061	94.847458	-294.659851	-251.530090
7320.851402	94.029228	-294.133850	-249.952072
7320.854756	91.983635	-294.601410	-248.315613
7320.858043	90.931618	-294.484497	-246.679138
7320.861369	89.061371	-294.601410	-244.808884
7320.864737	87.249557	-294.075378	-243.230865
7320.868060	85.671539	-294.601410	-242.354172
7320.871394	84.035065	-294.016937	-241.009949
7320.874716	83.216827	-294.367615	-240.308594
7320.878011	81.931030	-294.367615	-239.139694
7320.881408	79.885452	-294.893616	-237.210983
7320.884735	79.184105	-294.016937	-237.152542
7320.888076	77.722969	-294.367615	-235.983627
7320.891765	75.852722	-294.835175	-235.457626
7320.895049	74.859146	-294.776733	-234.464050
7320.898281	73.222672	-294.601410	-234.113388
7320.901509	72.053772	-294.542938	-233.704285
7320.905190	70.884865	-295.653412	-232.886032
7320.908388	69.482178	-295.770294	-233.061356
7320.911656	68.547043	-295.419617	-233.412048
7320.914875	68.254822	-295.887207	-233.061356
7320.918522	66.443016	-296.062531	-233.645813
7320.921725	65.098770	-295.887207	-233.002914
7320.924996	64.046753	-296.822327	-233.587387
7320.928704	63.462303	-296.413177	-233.879608
7320.931923	61.942722	-296.880768	-233.528915
7320.935171	61.241379	-297.465210	-234.054947
7320.938391	60.072472	-297.991241	-234.230270
7320.942097	58.962009	-298.458801	-234.990067
7320.945336	58.260666	-298.283447	-235.574524
7320.948564	56.857979	-298.809479	-235.457626
7320.951808	55.689072	-299.510803	-235.983627
7320.955468	55.163063	-299.978363	-236.392761
7320.958732	54.461716	-300.095245	-236.684982
7320.961963	53.117474	-300.738159	-236.918762
7320.965163	52.182350	-301.614838	-237.620117
7320.968838	50.954994	-301.088837	-237.736984
7320.972074	50.253654	-301.790161	-237.736984
7320.975267	48.909409	-302.082397	-238.438339
7320.978986	47.915840	-303.192871	-238.964340
7320.982188	46.688484	-303.485077	-239.198135
7320.985410	44.876678	-303.835754	-240.074829
7320.989098	44.000000	-304.420227	-240.133255
7320.992328	42.363529	-305.063110	-239.899460
7320.995571	41.603741	-305.530670	-240.776154
7320.998795	40.668613	-306.056671	-241.652847
7321.002482	39.850380	-306.232025	-242.003510
7321.005728	38.330799	-307.400940	-242.061951
7321.008979	36.752777	-308.102295	-243.581528
7321.012209	35.759205	-307.985382	-244.107529
7321.015856	35.174751	-309.154266	-245.451782
7321.019085	33.888954	-309.271179	-247.029800
7321.022287	32.661602	-310.790771	-248.081818
7321.025589	31.258913	-312.135010	-249.250748
7321.029210	29.973114	-312.135010	-250.887207
7321.032448	29.680887	-312.894775	-252.991241
7321.035680	26.583284	-314.239044	-254.160141
7321.039393	26.174168	-314.940399	-255.913498
7321.042613	24.771479	-316.226166	-257.783722
7321.045870	23.661016	-316.810638	-259.887787
7321.049084	22.901226	-317.921112	-262.459351
7321.052733	22.141438	-318.154877	-264.855621
7321.056046	21.089420	-319.791351	-267.427216
7321.059250	19.628288	-321.310944	-270.115723
7321.062512	18.050262	-322.187592	-272.395081
7321.066194	16.998245	-322.888947	-275.141998
7321.069398	15.887784	-324.116302	-277.772064
7321.072662	14.660432	-325.402100	-280.577423
7321.075931	13.842197	-326.278778	-283.382812
7321.079591	12.673290	-327.447693	-286.246613
7321.082814	11.212156	-328.499695	-288.350647
7321.086017	9.984804	-329.434845	-292.208069
7321.089708	8.991234	-330.603729	-294.019836
7321.093378	7.763880	-331.655762	-296.708344
7321.096708	7.004091	-332.766205	-299.922821
7321.100046	5.075394	-334.110474	-303.254242
7321.103371	3.906488	-335.279358	-305.416718
7321.106711	1.977791	-335.571594	-308.455841
7321.110043	1.276445	-337.091156	-312.137909
7321.113370	0.165985	-337.909393	-315.469299
7321.116708	-1.587376	-338.786072	-319.034454
7321.120040	-2.990063	-340.013428	-321.781403
7321.123373	-3.983639	-341.591461	-324.645203
7321.126704	-5.795441	-342.292786	-327.333710
7321.130059	-7.373466	-343.578613	-331.249542
7321.133371	-8.893044	-344.104614	-334.405609
7321.136707	-10.880188	-344.864410	-338.087646
7321.140038	-12.165985	-346.500885	-341.419037
7321.143370	-13.627121	-347.962006	-345.159546
7321.146704	-15.906487	-348.604889	-349.367615
7321.150038	-17.718292	-349.364685	-352.699005
7321.153367	-19.354763	-350.475159	-356.322601
7321.156701	-20.874340	-351.936279	-361.115143
7321.160038	-22.627705	-353.338959	-365.673859
7321.163366	-24.848629	-354.040314	-370.349487
7321.166709	-26.251316	-354.449432	-374.674438
7321.170036	-28.881359	-355.735229	-379.642303
7321.173368	-30.459381	-357.254822	-385.253052
7321.176702	-32.037407	-358.189941	-388.701324
7321.180034	-34.550552	-359.592651	-395.188751
7321.183397	-36.303917	-359.125061	-400.331970
7321.186696	-38.583282	-360.527771	-405.650482
7321.190035	-40.453537	-361.170654	-411.085907
7321.193367	-42.732903	-362.105774	-417.631775
7321.196698	-44.603157	-362.456451	-422.774994
7321.200031	-47.466980	-362.807129	-429.788391
7321.203363	-49.103447	-363.450012	-435.165375
7321.207120	-50.973701	-364.268250	-441.243713
7321.210451	-52.902397	-364.794250	-448.490906
7321.213809	-55.357101	-365.261810	-454.277008
7321.217167	-57.753357	-364.502045	-460.063141
7321.220464	-59.915840	-364.677368	-466.901215
7321.223789	-61.961426	-365.437164	-473.505554
7321.227116	-64.123901	-365.670959	-480.051422
