time (s)	theta (A)	maj axis/z0	min axis/z0	crossing#mod 255
4291.031276	84.112389	0.877811	-0.294734	47
4293.102401	83.360161	0.878174	-0.292157	49
4295.170194	82.970375	0.877563	-0.290189	51
4297.238652	82.223274	0.876540	-0.288278	53
4299.306502	81.376640	0.874557	-0.285635	55
4301.369443	80.742165	0.873224	-0.283301	57
4303.429696	80.280556	0.871388	-0.281463	59
4305.491900	80.087685	0.870021	-0.279655	61
4307.555901	79.917656	0.868986	-0.277951	63
4309.623154	79.393028	0.866416	-0.276285	65
4311.694848	78.874550	0.864742	-0.274279	67
4313.766303	79.170876	0.865270	-0.272529	69
4315.835994	80.049454	0.866803	-0.271309	71
4317.906213	81.184471	0.869614	-0.270151	73
4319.975673	82.342735	0.871929	-0.269965	75
4322.044806	83.055016	0.871635	-0.268842	77
4324.114491	83.012627	0.871995	-0.267783	79
4326.182216	82.784294	0.872575	-0.266420	81
4328.248761	82.652580	0.872536	-0.264310	83
4330.316594	82.484978	0.872303	-0.263365	85
4332.385006	81.995003	0.871764	-0.261770	87
4334.452518	81.808647	0.873137	-0.260717	89
4336.518639	81.731895	0.873293	-0.259101	91
4338.585933	81.580795	0.872812	-0.257773	93
4340.653613	81.152679	0.873145	-0.256308	95
4342.719340	80.777435	0.873024	-0.254478	97
4344.784555	80.422256	0.873349	-0.252691	99
4346.848717	79.822609	0.873007	-0.251694	101
4348.913170	79.100594	0.871242	-0.249620	103
4350.976012	78.357773	0.870425	-0.248819	105
4353.039616	77.677841	0.867511	-0.246647	107
4355.104629	77.172913	0.865331	-0.244787	109
4357.169601	76.993271	0.863626	-0.243177	111
4359.236013	76.942688	0.863673	-0.242396	113
4361.304267	77.017708	0.863797	-0.240751	115
4363.373179	77.292343	0.863556	-0.239281	117
4365.441827	77.522102	0.863809	-0.237749	119
4367.510902	77.618011	0.864603	-0.236442	121
4369.579345	77.637329	0.865966	-0.235644	123
4371.647456	77.571648	0.865445	-0.233859	125
4373.714708	77.406830	0.865710	-0.232460	127
4375.781751	77.180023	0.865324	-0.230749	129
4377.847882	76.820297	0.863528	-0.229019	131
4379.913289	76.412201	0.862376	-0.227289	133
4381.978243	75.986824	0.861654	-0.225756	135
4384.043143	75.485931	0.860083	-0.224344	137
4386.109138	75.099609	0.858894	-0.222681	139
4388.176326	74.875343	0.858187	-0.220914	141
4390.244258	74.892212	0.857009	-0.219152	143
4392.313187	75.039825	0.855753	-0.217568	145
4394.383156	75.252121	0.855318	-0.215650	147
4396.453334	75.673317	0.856676	-0.214390	149
4398.523253	76.196434	0.857982	-0.213221	151
4400.592550	76.752678	0.859893	-0.212546	153
4402.661411	77.235596	0.861048	-0.211513	155
4404.729668	77.568924	0.861715	-0.210655	157
4406.797704	77.696678	0.862951	-0.209753	159
4408.865158	77.663277	0.863732	-0.208785	161
4410.932674	77.641945	0.863762	-0.207341	163
4412.999671	77.519493	0.863418	-0.206165	165
4415.066971	77.331017	0.862742	-0.204463	167
4417.133691	77.036079	0.861744	-0.202645	169
4419.200186	76.757118	0.861002	-0.201074	171
4421.266240	76.387596	0.860320	-0.199696	173
4423.331764	75.936554	0.860178	-0.198247	175
4425.396793	75.401085	0.859063	-0.196481	177
4427.461388	74.829361	0.857639	-0.194889	179
4429.525938	74.245682	0.855628	-0.193525	181
4431.590015	73.732903	0.855320	-0.192487	183
4433.653917	73.364540	0.853240	-0.191418	185
4435.719848	73.119232	0.850211	-0.189674	187
4437.786392	73.133934	0.851276	-0.188727	189
4439.853861	73.155273	0.850854	-0.187485	191
4441.921545	73.252678	0.851198	-0.186421	193
4443.989856	73.286018	0.851233	-0.184982	195
4446.058315	73.370445	0.851349	-0.183466	197
4448.126237	73.448486	0.851589	-0.182353	199
4450.194313	73.359985	0.852079	-0.181079	201
4452.261560	73.337677	0.851612	-0.179420	203
4454.328646	73.165901	0.851266	-0.177803	205
4456.394968	72.992493	0.851348	-0.176518	207
4458.460791	72.722801	0.850632	-0.175594	209
4460.526394	72.416382	0.849602	-0.174288	211
4462.592185	72.132874	0.848858	-0.172685	213
4464.658225	71.906380	0.848504	-0.171538	215
4466.724880	71.721756	0.847026	-0.170099	217
4468.792443	71.609848	0.846239	-0.168692	219
4470.860650	71.585472	0.845585	-0.167107	221
4472.929416	71.622925	0.845738	-0.165753	223
4474.998408	71.812691	0.846393	-0.164569	225
4477.067587	72.094597	0.847516	-0.163365	227
4479.136817	72.412247	0.848968	-0.162304	229
4481.205645	72.763206	0.851093	-0.161291	231
4483.274363	73.143944	0.852179	-0.160124	233
4485.342470	73.388145	0.852424	-0.159443	235
4487.410355	73.566101	0.852724	-0.158518	237
4489.478130	73.557045	0.853522	-0.157457	239
4491.545270	73.469322	0.854148	-0.156477	241
4493.612388	73.388283	0.853819	-0.155344	243
4495.679272	73.190353	0.854112	-0.154376	245
4497.745606	72.948792	0.854421	-0.153190	247
4499.811935	72.750053	0.854045	-0.151780	249
4501.877626	72.367615	0.853320	-0.150673	251
4503.943185	71.962364	0.851709	-0.149093	253
4506.008104	71.629288	0.849842	-0.147545	255
4508.073218	71.263092	0.848278	-0.145995	1
4510.138077	70.942612	0.846096	-0.144541	3
4512.203060	70.673164	0.844138	-0.143511	5
4514.268792	70.468735	0.843517	-0.142689	7
4516.334942	70.361771	0.842866	-0.141323	9
4518.401372	70.330635	0.841768	-0.140801	11
4520.468720	70.409370	0.840483	-0.139843	13
4522.536038	70.381142	0.841058	-0.138706	15
4524.603966	70.410561	0.841700	-0.137187	17
4526.671665	70.404663	0.841100	-0.135904	19
4528.739375	70.379906	0.841839	-0.134826	21
4530.806759	70.371117	0.840423	-0.133343	23
4532.873950	70.302429	0.840130	-0.132209	25
4534.940669	70.130783	0.839929	-0.130478	27
4537.007128	69.989937	0.840767	-0.130160	29
4539.073237	69.836395	0.840668	-0.129150	31
4541.139545	69.685524	0.840875	-0.127962	33
4543.205856	69.518791	0.839616	-0.126889	35
4545.272560	69.393616	0.838459	-0.125260	37
4547.339646	69.242348	0.837873	-0.123817	39
4549.407129	69.158821	0.837953	-0.122606	41
4551.474860	69.135414	0.837826	-0.121234	43
4553.543124	69.159744	0.838091	-0.119975	45
4555.611798	69.261948	0.839057	-0.119276	47
4557.680434	69.453400	0.839923	-0.118023	49
4559.749216	69.661613	0.842376	-0.117082	51
4561.817679	69.857979	0.842291	-0.115880	53
4563.886030	70.026581	0.842506	-0.114260	55
4565.954071	70.118546	0.842431	-0.113154	57
4568.022113	70.183525	0.843800	-0.113019	59
4570.089372	70.239082	0.843486	-0.111337	61
4572.156765	70.205414	0.842574	-0.110160	63
4574.223723	70.116714	0.841912	-0.109119	65
4576.290245	69.989799	0.840589	-0.107815	67
4578.356567	69.781021	0.840290	-0.106246	69
4580.422608	69.643410	0.839604	-0.105401	71
4582.488277	69.451797	0.838729	-0.104713	73
4584.553927	69.229652	0.837342	-0.103307	75
4586.619355	68.997925	0.836679	-0.102392	77
4588.684707	68.808746	0.835445	-0.101087	79
4590.750138	68.650513	0.834610	-0.100342	81
4592.816430	68.441193	0.833364	-0.099774	83
4594.881881	68.449226	0.831637	-0.098315	85
4596.948295	68.365555	0.830510	-0.097224	87
4599.015079	68.354141	0.829829	-0.095995	89
